Cuboid WxL 30.0x 10.0 cm  40x 80 zones filter numStat  2e+04
 Zone	x	z	dose	Con(C10)	Con(C11)	Con(N12)	Con(N13)	Con(O13)	Con(O14)	Con(O15)	Con(F17)	Con(F18)
	cm	cm	mGy	1/cm^3
 1	-4.94	 25.15	 3.385e-06	     0.00	     0.00	     0.00	     0.00	     0.00	     0.00	     0.00	     0.00	     0.00	
 2	-4.81	 25.15	 9.315e-06	     0.00	     0.00	     0.00	     0.00	     0.00	     0.00	     0.00	     0.00	     0.00	
 3	-4.69	 25.15	 2.003e-05	     0.00	     0.00	     0.00	     0.00	     0.00	     0.00	     0.00	     0.00	     0.00	
 4	-4.56	 25.15	 8.431e-06	     0.00	     0.00	     0.00	     0.00	     0.00	     0.00	     0.00	     0.00	     0.00	
 5	-4.44	 25.15	 1.250e-05	     0.00	     0.00	     0.00	     0.00	     0.00	     0.00	     0.00	     0.00	     0.00	
 6	-4.31	 25.15	 7.879e-06	     0.00	     0.00	     0.00	     0.00	     0.00	     0.00	     0.00	     0.00	     0.00	
 7	-4.19	 25.15	 8.630e-06	     0.00	     0.00	     0.00	     0.00	     0.00	     0.00	     0.00	     0.00	     0.00	
 8	-4.06	 25.15	 6.354e-06	     0.00	     0.00	     0.00	     0.00	     0.00	     0.00	     0.00	     0.00	     0.00	
 9	-3.94	 25.15	 9.683e-06	     0.00	     0.00	     0.00	     0.00	     0.00	     0.00	     0.00	     0.00	     0.00	
 10	-3.81	 25.15	 7.446e-06	     0.00	     0.00	     0.00	     0.00	     0.00	     0.00	     0.00	     0.00	     0.00	
 11	-3.69	 25.15	 9.974e-06	     0.00	     0.00	     0.00	     0.00	     0.00	     0.00	     0.00	     0.00	     0.00	
 12	-3.56	 25.15	 2.271e-05	     0.00	     0.00	     0.00	     0.00	     0.00	     0.00	     0.00	     0.00	     0.00	
 13	-3.44	 25.15	 1.537e-05	     0.00	     0.00	     0.00	     0.00	     0.00	     0.00	     0.00	     0.00	     0.00	
 14	-3.31	 25.15	 2.661e-05	     0.00	     0.00	     0.00	     0.00	     0.00	     0.00	     0.00	     0.00	     0.00	
 15	-3.19	 25.15	 3.290e-05	     0.00	     0.00	     0.00	     0.00	     0.00	     0.00	     0.00	     0.00	     0.00	
 16	-3.06	 25.15	 4.509e-05	     0.00	     0.00	     0.00	     0.00	     0.00	     0.00	     0.00	     0.00	     0.00	
 17	-2.94	 25.15	 4.394e-05	     0.00	     0.00	     0.00	     0.00	     0.00	     0.00	     0.00	     0.00	     0.00	
 18	-2.81	 25.15	 6.713e-05	     0.00	     0.00	     0.00	     0.00	     0.00	     0.00	     0.00	     0.00	     0.00	
 19	-2.69	 25.15	 1.047e-04	     0.00	     0.00	     0.00	     0.00	     0.00	     0.00	     0.00	     0.00	     0.00	
 20	-2.56	 25.15	 1.546e-04	     0.00	     0.00	     0.00	     0.00	     0.00	     0.00	     0.00	     0.00	     0.00	
 21	-2.44	 25.15	 2.764e-04	     0.00	     0.00	     0.00	     0.00	     0.00	     0.00	     0.00	     0.00	     0.00	
 22	-2.31	 25.15	 2.981e-04	     0.00	     0.00	     0.00	     0.00	     0.00	     0.00	     0.00	     0.00	     0.00	
 23	-2.19	 25.15	 3.406e-04	     0.00	     0.00	     0.00	     0.00	     0.00	     0.00	     0.00	     0.00	     0.00	
 24	-2.06	 25.15	 4.005e-04	     0.00	     0.00	     0.00	     0.00	     0.00	     0.00	     0.00	     0.00	     0.00	
 25	-1.94	 25.15	 3.849e-04	     0.00	     0.00	     0.00	     0.00	     0.00	     0.00	     0.00	     0.00	     0.00	
 26	-1.81	 25.15	 4.153e-04	     0.00	     0.00	     0.00	     0.00	     0.00	     0.00	     0.00	     0.00	     0.00	
 27	-1.69	 25.15	 4.022e-04	     0.00	     0.00	     0.00	     0.00	     0.00	     0.00	     0.00	     0.00	     0.00	
 28	-1.56	 25.15	 3.890e-04	     0.00	     0.00	     0.00	     0.00	     0.00	     0.00	     0.00	     0.00	     0.00	
 29	-1.44	 25.15	 4.058e-04	     0.00	     0.00	     0.00	     0.00	     0.00	     0.00	     5.33	     0.00	     0.00	
 30	-1.31	 25.15	 3.916e-04	     0.00	     2.67	     0.00	     0.00	     0.00	     0.00	     0.00	     0.00	     0.00	
 31	-1.19	 25.15	 4.125e-04	     0.00	     0.00	     0.00	     0.00	     0.00	     0.00	     0.00	     0.00	     0.00	
 32	-1.06	 25.15	 3.895e-04	     5.33	     0.00	     0.00	     0.00	     0.00	     0.00	     0.00	     0.00	     0.00	
 33	-0.94	 25.15	 4.282e-04	     0.00	     0.00	     0.00	     0.00	     0.00	     0.00	     0.00	     0.00	     0.00	
 34	-0.81	 25.15	 4.001e-04	     0.00	     0.00	     0.00	     0.00	     0.00	     0.00	     0.00	     0.00	     0.00	
 35	-0.69	 25.15	 4.373e-04	     0.00	     0.00	     0.00	     0.00	     0.00	     0.00	     0.00	     0.00	     0.00	
 36	-0.56	 25.15	 4.453e-04	     0.00	     0.00	     0.00	     0.00	     0.00	     0.00	     2.67	     0.00	     0.00	
 37	-0.44	 25.15	 4.246e-04	     0.00	     0.00	     0.00	     0.00	     0.00	     0.00	     0.00	     0.00	     0.00	
 38	-0.31	 25.15	 3.892e-04	     0.00	     0.00	     0.00	     0.00	     0.00	     0.00	     0.00	     0.00	     0.00	
 39	-0.19	 25.15	 3.754e-04	     0.00	     2.67	     0.00	     0.00	     0.00	     0.00	     2.67	     0.00	     0.00	
 40	-0.06	 25.15	 4.113e-04	     0.00	     0.00	     0.00	     0.00	     0.00	     0.00	     0.00	     0.00	     0.00	
 41	 0.06	 25.15	 3.857e-04	     2.67	     0.00	     0.00	     0.00	     0.00	     0.00	     0.00	     0.00	     0.00	
 42	 0.19	 25.15	 3.731e-04	     0.00	     0.00	     0.00	     0.00	     0.00	     0.00	     5.33	     0.00	     0.00	
 43	 0.31	 25.15	 4.174e-04	     0.00	     0.00	     0.00	     0.00	     0.00	     0.00	     2.67	     0.00	     0.00	
 44	 0.44	 25.15	 4.228e-04	     0.00	     0.00	     0.00	     0.00	     0.00	     0.00	     2.67	     0.00	     0.00	
 45	 0.56	 25.15	 3.884e-04	     0.00	     0.00	     0.00	     0.00	     0.00	     0.00	     2.67	     0.00	     0.00	
 46	 0.69	 25.15	 4.148e-04	     0.00	     0.00	     0.00	     0.00	     0.00	     0.00	     0.00	     0.00	     0.00	
 47	 0.81	 25.15	 4.062e-04	     0.00	     0.00	     0.00	     0.00	     0.00	     0.00	     2.67	     0.00	     0.00	
 48	 0.94	 25.15	 3.971e-04	     0.00	     0.00	     0.00	     0.00	     0.00	     0.00	     0.00	     0.00	     0.00	
 49	 1.06	 25.15	 4.150e-04	     0.00	     0.00	     0.00	     0.00	     0.00	     0.00	     0.00	     0.00	     0.00	
 50	 1.19	 25.15	 4.332e-04	     0.00	     2.67	     0.00	     0.00	     0.00	     0.00	     0.00	     0.00	     0.00	
 51	 1.31	 25.15	 4.198e-04	     0.00	     0.00	     0.00	     0.00	     0.00	     0.00	     0.00	     0.00	     0.00	
 52	 1.44	 25.15	 3.784e-04	     0.00	     0.00	     0.00	     0.00	     0.00	     0.00	     0.00	     0.00	     0.00	
 53	 1.56	 25.15	 4.103e-04	     0.00	     0.00	     0.00	     0.00	     0.00	     0.00	     2.67	     0.00	     0.00	
 54	 1.69	 25.15	 4.063e-04	     0.00	     0.00	     0.00	     2.67	     0.00	     0.00	     0.00	     0.00	     0.00	
 55	 1.81	 25.15	 3.614e-04	     0.00	     2.67	     0.00	     0.00	     0.00	     0.00	     0.00	     0.00	     0.00	
 56	 1.94	 25.15	 4.007e-04	     2.67	     0.00	     0.00	     0.00	     0.00	     0.00	     0.00	     0.00	     0.00	
 57	 2.06	 25.15	 3.758e-04	     0.00	     0.00	     0.00	     0.00	     0.00	     0.00	     0.00	     0.00	     0.00	
 58	 2.19	 25.15	 3.847e-04	     0.00	     0.00	     0.00	     0.00	     0.00	     0.00	     2.67	     0.00	     0.00	
 59	 2.31	 25.15	 2.861e-04	     0.00	     0.00	     0.00	     0.00	     0.00	     0.00	     0.00	     0.00	     0.00	
 60	 2.44	 25.15	 1.964e-04	     0.00	     0.00	     0.00	     0.00	     0.00	     0.00	     0.00	     0.00	     0.00	
 61	 2.56	 25.15	 1.885e-04	     0.00	     0.00	     0.00	     0.00	     0.00	     0.00	     0.00	     0.00	     0.00	
 62	 2.69	 25.15	 1.288e-04	     0.00	     0.00	     0.00	     0.00	     0.00	     0.00	     0.00	     0.00	     0.00	
 63	 2.81	 25.15	 8.948e-05	     0.00	     0.00	     0.00	     0.00	     0.00	     0.00	     2.67	     0.00	     0.00	
 64	 2.94	 25.15	 6.324e-05	     0.00	     0.00	     0.00	     0.00	     0.00	     0.00	     0.00	     0.00	     0.00	
 65	 3.06	 25.15	 4.612e-05	     0.00	     0.00	     0.00	     0.00	     0.00	     0.00	     0.00	     0.00	     0.00	
 66	 3.19	 25.15	 2.568e-05	     0.00	     0.00	     0.00	     0.00	     0.00	     0.00	     0.00	     0.00	     0.00	
 67	 3.31	 25.15	 2.223e-05	     0.00	     0.00	     0.00	     0.00	     0.00	     0.00	     0.00	     0.00	     0.00	
 68	 3.44	 25.15	 3.702e-05	     0.00	     0.00	     0.00	     0.00	     0.00	     0.00	     0.00	     0.00	     0.00	
 69	 3.56	 25.15	 2.274e-05	     0.00	     0.00	     0.00	     0.00	     0.00	     0.00	     0.00	     0.00	     0.00	
 70	 3.69	 25.15	 9.656e-06	     0.00	     0.00	     0.00	     0.00	     0.00	     0.00	     0.00	     0.00	     0.00	
 71	 3.81	 25.15	 1.626e-05	     0.00	     0.00	     0.00	     0.00	     0.00	     0.00	     0.00	     0.00	     0.00	
 72	 3.94	 25.15	 1.246e-05	     0.00	     0.00	     0.00	     0.00	     0.00	     0.00	     0.00	     0.00	     0.00	
 73	 4.06	 25.15	 1.442e-05	     0.00	     0.00	     0.00	     0.00	     0.00	     0.00	     0.00	     0.00	     0.00	
 74	 4.19	 25.15	 9.174e-06	     0.00	     0.00	     0.00	     0.00	     0.00	     0.00	     0.00	     0.00	     0.00	
 75	 4.31	 25.15	 1.073e-05	     0.00	     0.00	     0.00	     0.00	     0.00	     0.00	     0.00	     0.00	     0.00	
 76	 4.44	 25.15	 1.552e-05	     0.00	     0.00	     0.00	     0.00	     0.00	     0.00	     0.00	     0.00	     0.00	
 77	 4.56	 25.15	 1.085e-05	     0.00	     0.00	     0.00	     0.00	     0.00	     0.00	     0.00	     0.00	     0.00	
 78	 4.69	 25.15	 6.193e-06	     0.00	     0.00	     0.00	     0.00	     0.00	     0.00	     0.00	     0.00	     0.00	
 79	 4.81	 25.15	 5.000e-06	     0.00	     0.00	     0.00	     0.00	     0.00	     0.00	     0.00	     0.00	     0.00	
 80	 4.94	 25.15	 2.534e-06	     0.00	     0.00	     0.00	     0.00	     0.00	     0.00	     0.00	     0.00	     0.00	
 81	-4.94	 25.45	 4.727e-06	     0.00	     0.00	     0.00	     0.00	     0.00	     0.00	     0.00	     0.00	     0.00	
 82	-4.81	 25.45	 8.094e-06	     0.00	     0.00	     0.00	     0.00	     0.00	     0.00	     0.00	     0.00	     0.00	
 83	-4.69	 25.45	 7.939e-06	     0.00	     0.00	     0.00	     0.00	     0.00	     0.00	     0.00	     0.00	     0.00	
 84	-4.56	 25.45	 8.118e-06	     0.00	     0.00	     0.00	     0.00	     0.00	     0.00	     0.00	     0.00	     0.00	
 85	-4.44	 25.45	 1.077e-05	     0.00	     0.00	     0.00	     0.00	     0.00	     0.00	     0.00	     0.00	     0.00	
 86	-4.31	 25.45	 7.737e-06	     0.00	     0.00	     0.00	     0.00	     0.00	     0.00	     0.00	     0.00	     0.00	
 87	-4.19	 25.45	 6.067e-06	     0.00	     0.00	     0.00	     0.00	     0.00	     0.00	     0.00	     0.00	     0.00	
 88	-4.06	 25.45	 9.192e-06	     0.00	     0.00	     0.00	     0.00	     0.00	     0.00	     0.00	     0.00	     0.00	
 89	-3.94	 25.45	 5.596e-06	     0.00	     0.00	     0.00	     0.00	     0.00	     0.00	     0.00	     0.00	     0.00	
 90	-3.81	 25.45	 7.227e-06	     0.00	     0.00	     0.00	     0.00	     0.00	     0.00	     0.00	     0.00	     0.00	
 91	-3.69	 25.45	 1.930e-05	     0.00	     0.00	     0.00	     0.00	     0.00	     0.00	     0.00	     0.00	     0.00	
 92	-3.56	 25.45	 1.471e-05	     0.00	     0.00	     0.00	     0.00	     0.00	     0.00	     0.00	     0.00	     0.00	
 93	-3.44	 25.45	 2.070e-05	     0.00	     0.00	     0.00	     0.00	     0.00	     0.00	     0.00	     0.00	     0.00	
 94	-3.31	 25.45	 3.158e-05	     0.00	     0.00	     0.00	     0.00	     0.00	     0.00	     0.00	     0.00	     0.00	
 95	-3.19	 25.45	 3.681e-05	     0.00	     0.00	     0.00	     0.00	     0.00	     0.00	     0.00	     0.00	     0.00	
 96	-3.06	 25.45	 2.640e-05	     0.00	     0.00	     0.00	     0.00	     0.00	     0.00	     0.00	     0.00	     0.00	
 97	-2.94	 25.45	 4.724e-05	     0.00	     0.00	     0.00	     0.00	     0.00	     0.00	     0.00	     0.00	     0.00	
 98	-2.81	 25.45	 7.364e-05	     0.00	     0.00	     0.00	     0.00	     0.00	     0.00	     0.00	     0.00	     0.00	
 99	-2.69	 25.45	 1.004e-04	     0.00	     0.00	     0.00	     0.00	     0.00	     0.00	     0.00	     0.00	     0.00	
 100	-2.56	 25.45	 1.669e-04	     0.00	     0.00	     0.00	     0.00	     0.00	     0.00	     0.00	     0.00	     0.00	
 101	-2.44	 25.45	 2.579e-04	     0.00	     0.00	     0.00	     0.00	     0.00	     0.00	     0.00	     0.00	     0.00	
 102	-2.31	 25.45	 3.114e-04	     0.00	     2.67	     0.00	     0.00	     0.00	     0.00	     0.00	     0.00	     0.00	
 103	-2.19	 25.45	 3.642e-04	     0.00	     5.33	     0.00	     0.00	     0.00	     0.00	     0.00	     0.00	     0.00	
 104	-2.06	 25.45	 3.874e-04	     0.00	     0.00	     0.00	     0.00	     0.00	     0.00	     0.00	     0.00	     0.00	
 105	-1.94	 25.45	 4.015e-04	     0.00	     0.00	     0.00	     0.00	     0.00	     0.00	     0.00	     0.00	     0.00	
 106	-1.81	 25.45	 4.192e-04	     0.00	     0.00	     0.00	     0.00	     0.00	     0.00	     2.67	     0.00	     0.00	
 107	-1.69	 25.45	 4.247e-04	     0.00	     0.00	     0.00	     0.00	     0.00	     0.00	     0.00	     0.00	     0.00	
 108	-1.56	 25.45	 4.099e-04	     2.67	     2.67	     0.00	     0.00	     0.00	     0.00	     2.67	     0.00	     0.00	
 109	-1.44	 25.45	 4.336e-04	     2.67	     0.00	     0.00	     0.00	     0.00	     0.00	     2.67	     0.00	     0.00	
 110	-1.31	 25.45	 4.226e-04	     0.00	     0.00	     0.00	     0.00	     0.00	     0.00	     0.00	     0.00	     0.00	
 111	-1.19	 25.45	 4.290e-04	     0.00	     0.00	     0.00	     0.00	     0.00	     0.00	     2.67	     0.00	     0.00	
 112	-1.06	 25.45	 3.974e-04	     0.00	     0.00	     0.00	     0.00	     0.00	     0.00	     0.00	     0.00	     0.00	
 113	-0.94	 25.45	 4.337e-04	     0.00	     0.00	     0.00	     0.00	     0.00	     2.67	     0.00	     0.00	     0.00	
 114	-0.81	 25.45	 4.216e-04	     0.00	     0.00	     0.00	     0.00	     0.00	     0.00	     5.33	     0.00	     0.00	
 115	-0.69	 25.45	 4.368e-04	     0.00	     2.67	     0.00	     0.00	     0.00	     0.00	     0.00	     0.00	     0.00	
 116	-0.56	 25.45	 4.089e-04	     0.00	     0.00	     0.00	     2.67	     0.00	     0.00	     5.33	     0.00	     0.00	
 117	-0.44	 25.45	 4.190e-04	     0.00	     0.00	     0.00	     0.00	     0.00	     0.00	     0.00	     0.00	     0.00	
 118	-0.31	 25.45	 4.068e-04	     0.00	     0.00	     0.00	     0.00	     0.00	     0.00	     0.00	     0.00	     0.00	
 119	-0.19	 25.45	 3.672e-04	     0.00	     0.00	     0.00	     0.00	     0.00	     0.00	     0.00	     0.00	     0.00	
 120	-0.06	 25.45	 4.158e-04	     0.00	     0.00	     0.00	     0.00	     0.00	     0.00	     0.00	     0.00	     0.00	
 121	 0.06	 25.45	 3.727e-04	     0.00	     0.00	     0.00	     0.00	     0.00	     0.00	     0.00	     0.00	     0.00	
 122	 0.19	 25.45	 4.018e-04	     0.00	     0.00	     0.00	     0.00	     0.00	     2.67	     0.00	     0.00	     0.00	
 123	 0.31	 25.45	 4.311e-04	     2.67	     0.00	     0.00	     0.00	     0.00	     0.00	     0.00	     0.00	     0.00	
 124	 0.44	 25.45	 4.473e-04	     0.00	     0.00	     0.00	     0.00	     0.00	     0.00	     2.67	     0.00	     0.00	
 125	 0.56	 25.45	 4.556e-04	     0.00	     0.00	     0.00	     0.00	     0.00	     0.00	     0.00	     0.00	     0.00	
 126	 0.69	 25.45	 4.409e-04	     0.00	     0.00	     0.00	     0.00	     0.00	     0.00	     2.67	     0.00	     0.00	
 127	 0.81	 25.45	 4.156e-04	     0.00	     0.00	     0.00	     0.00	     0.00	     0.00	     0.00	     0.00	     0.00	
 128	 0.94	 25.45	 4.107e-04	     0.00	     0.00	     0.00	     0.00	     0.00	     0.00	     2.67	     0.00	     0.00	
 129	 1.06	 25.45	 4.101e-04	     0.00	     0.00	     0.00	     0.00	     0.00	     0.00	     0.00	     0.00	     0.00	
 130	 1.19	 25.45	 4.122e-04	     0.00	     0.00	     0.00	     0.00	     0.00	     0.00	     0.00	     0.00	     0.00	
 131	 1.31	 25.45	 4.008e-04	     0.00	     0.00	     0.00	     0.00	     0.00	     0.00	     5.33	     0.00	     0.00	
 132	 1.44	 25.45	 3.789e-04	     0.00	     0.00	     0.00	     0.00	     0.00	     0.00	     0.00	     0.00	     0.00	
 133	 1.56	 25.45	 4.196e-04	     0.00	     0.00	     0.00	     0.00	     0.00	     0.00	     0.00	     0.00	     0.00	
 134	 1.69	 25.45	 4.140e-04	     0.00	     0.00	     0.00	     0.00	     0.00	     0.00	     0.00	     0.00	     0.00	
 135	 1.81	 25.45	 3.535e-04	     0.00	     0.00	     0.00	     0.00	     0.00	     0.00	     0.00	     0.00	     0.00	
 136	 1.94	 25.45	 3.882e-04	     0.00	     0.00	     0.00	     0.00	     0.00	     0.00	     2.67	     0.00	     0.00	
 137	 2.06	 25.45	 3.678e-04	     0.00	     0.00	     0.00	     0.00	     0.00	     0.00	     0.00	     0.00	     0.00	
 138	 2.19	 25.45	 3.698e-04	     0.00	     0.00	     0.00	     0.00	     0.00	     0.00	     0.00	     0.00	     0.00	
 139	 2.31	 25.45	 2.909e-04	     0.00	     0.00	     0.00	     0.00	     0.00	     0.00	     0.00	     0.00	     0.00	
 140	 2.44	 25.45	 2.145e-04	     0.00	     0.00	     0.00	     0.00	     0.00	     0.00	     0.00	     0.00	     0.00	
 141	 2.56	 25.45	 1.621e-04	     0.00	     0.00	     0.00	     0.00	     0.00	     0.00	     2.67	     0.00	     0.00	
 142	 2.69	 25.45	 1.294e-04	     0.00	     0.00	     0.00	     0.00	     0.00	     0.00	     0.00	     0.00	     0.00	
 143	 2.81	 25.45	 1.179e-04	     0.00	     2.67	     0.00	     0.00	     0.00	     0.00	     2.67	     0.00	     0.00	
 144	 2.94	 25.45	 6.294e-05	     0.00	     0.00	     0.00	     0.00	     0.00	     0.00	     0.00	     0.00	     0.00	
 145	 3.06	 25.45	 4.511e-05	     0.00	     0.00	     0.00	     0.00	     0.00	     0.00	     0.00	     0.00	     0.00	
 146	 3.19	 25.45	 3.930e-05	     0.00	     0.00	     0.00	     0.00	     0.00	     0.00	     0.00	     0.00	     0.00	
 147	 3.31	 25.45	 3.904e-05	     0.00	     0.00	     0.00	     0.00	     0.00	     0.00	     0.00	     0.00	     0.00	
 148	 3.44	 25.45	 3.274e-05	     0.00	     0.00	     0.00	     0.00	     0.00	     0.00	     0.00	     0.00	     0.00	
 149	 3.56	 25.45	 2.508e-05	     0.00	     0.00	     0.00	     0.00	     0.00	     0.00	     0.00	     0.00	     0.00	
 150	 3.69	 25.45	 1.103e-05	     0.00	     0.00	     0.00	     0.00	     0.00	     0.00	     0.00	     0.00	     0.00	
 151	 3.81	 25.45	 1.221e-05	     0.00	     0.00	     0.00	     0.00	     0.00	     0.00	     0.00	     0.00	     0.00	
 152	 3.94	 25.45	 1.408e-05	     0.00	     0.00	     0.00	     0.00	     0.00	     0.00	     0.00	     0.00	     0.00	
 153	 4.06	 25.45	 1.437e-05	     0.00	     0.00	     0.00	     0.00	     0.00	     0.00	     0.00	     0.00	     0.00	
 154	 4.19	 25.45	 1.210e-05	     0.00	     0.00	     0.00	     0.00	     0.00	     0.00	     0.00	     0.00	     0.00	
 155	 4.31	 25.45	 1.211e-05	     0.00	     0.00	     0.00	     0.00	     0.00	     0.00	     0.00	     0.00	     0.00	
 156	 4.44	 25.45	 1.011e-05	     0.00	     0.00	     0.00	     0.00	     0.00	     0.00	     0.00	     0.00	     0.00	
 157	 4.56	 25.45	 7.138e-06	     0.00	     0.00	     0.00	     0.00	     0.00	     0.00	     0.00	     0.00	     0.00	
 158	 4.69	 25.45	 1.167e-05	     0.00	     0.00	     0.00	     0.00	     0.00	     0.00	     0.00	     0.00	     0.00	
 159	 4.81	 25.45	 8.254e-06	     0.00	     0.00	     0.00	     0.00	     0.00	     0.00	     0.00	     0.00	     0.00	
 160	 4.94	 25.45	 8.272e-06	     0.00	     0.00	     0.00	     0.00	     0.00	     0.00	     0.00	     0.00	     0.00	
 161	-4.94	 25.75	 9.506e-06	     0.00	     0.00	     0.00	     0.00	     0.00	     0.00	     0.00	     0.00	     0.00	
 162	-4.81	 25.75	 7.999e-06	     0.00	     0.00	     0.00	     0.00	     0.00	     0.00	     0.00	     0.00	     0.00	
 163	-4.69	 25.75	 4.812e-06	     0.00	     0.00	     0.00	     0.00	     0.00	     0.00	     0.00	     0.00	     0.00	
 164	-4.56	 25.75	 1.341e-05	     0.00	     0.00	     0.00	     0.00	     0.00	     0.00	     0.00	     0.00	     0.00	
