Cuboid WxL 30.0x 10.0 cm  40x 80 zones filter numStat  2e+04
 Zone	x	z	dose	Con(C10)	Con(C11)	Con(N12)	Con(N13)	Con(O13)	Con(O14)	Con(O15)	Con(F17)	Con(F18)
	cm	cm	mGy	1/cm^3
 1	-4.94	 25.15	 7.732e-06	     0.00	     0.00	     0.00	     0.00	     0.00	     0.00	     0.00	     0.00	     0.00	
 2	-4.81	 25.15	 6.638e-06	     0.00	     0.00	     0.00	     0.00	     0.00	     0.00	     0.00	     0.00	     0.00	
 3	-4.69	 25.15	 9.084e-06	     0.00	     0.00	     0.00	     0.00	     0.00	     0.00	     0.00	     0.00	     0.00	
 4	-4.56	 25.15	 1.349e-05	     0.00	     0.00	     0.00	     0.00	     0.00	     0.00	     0.00	     0.00	     0.00	
 5	-4.44	 25.15	 5.779e-06	     0.00	     0.00	     0.00	     0.00	     0.00	     0.00	     0.00	     0.00	     0.00	
 6	-4.31	 25.15	 6.839e-06	     0.00	     0.00	     0.00	     0.00	     0.00	     0.00	     0.00	     0.00	     0.00	
 7	-4.19	 25.15	 1.226e-05	     0.00	     0.00	     0.00	     0.00	     0.00	     0.00	     0.00	     0.00	     0.00	
 8	-4.06	 25.15	 2.201e-06	     0.00	     0.00	     0.00	     0.00	     0.00	     0.00	     0.00	     0.00	     0.00	
 9	-3.94	 25.15	 1.558e-06	     0.00	     0.00	     0.00	     0.00	     0.00	     0.00	     0.00	     0.00	     0.00	
 10	-3.81	 25.15	 2.718e-06	     0.00	     0.00	     0.00	     0.00	     0.00	     0.00	     0.00	     0.00	     0.00	
 11	-3.69	 25.15	 1.045e-05	     0.00	     0.00	     0.00	     0.00	     0.00	     0.00	     0.00	     0.00	     0.00	
 12	-3.56	 25.15	 6.660e-06	     0.00	     0.00	     0.00	     0.00	     0.00	     0.00	     0.00	     0.00	     0.00	
 13	-3.44	 25.15	 7.002e-06	     0.00	     0.00	     0.00	     0.00	     0.00	     0.00	     0.00	     0.00	     0.00	
 14	-3.31	 25.15	 1.681e-05	     0.00	     0.00	     0.00	     0.00	     0.00	     0.00	     0.00	     0.00	     0.00	
 15	-3.19	 25.15	 2.380e-05	     0.00	     0.00	     0.00	     0.00	     0.00	     0.00	     0.00	     0.00	     0.00	
 16	-3.06	 25.15	 2.247e-05	     0.00	     0.00	     0.00	     0.00	     0.00	     0.00	     0.00	     0.00	     0.00	
 17	-2.94	 25.15	 3.702e-05	     0.00	     0.00	     0.00	     0.00	     0.00	     0.00	     0.00	     0.00	     0.00	
 18	-2.81	 25.15	 7.457e-05	     0.00	     0.00	     0.00	     0.00	     0.00	     0.00	     0.00	     0.00	     0.00	
 19	-2.69	 25.15	 1.264e-04	     0.00	     0.00	     0.00	     0.00	     0.00	     0.00	     0.00	     0.00	     0.00	
 20	-2.56	 25.15	 1.934e-04	     0.00	     0.00	     0.00	     0.00	     0.00	     0.00	     0.00	     0.00	     0.00	
 21	-2.44	 25.15	 2.492e-04	     0.00	     0.00	     0.00	     0.00	     0.00	     0.00	     0.00	     0.00	     0.00	
 22	-2.31	 25.15	 3.018e-04	     0.00	     0.00	     0.00	     0.00	     0.00	     0.00	     0.00	     0.00	     0.00	
 23	-2.19	 25.15	 3.465e-04	     0.00	     0.00	     0.00	     0.00	     0.00	     0.00	     0.00	     0.00	     0.00	
 24	-2.06	 25.15	 4.129e-04	     0.00	     0.00	     0.00	     0.00	     0.00	     0.00	     0.00	     0.00	     0.00	
 25	-1.94	 25.15	 3.948e-04	     0.00	     0.00	     0.00	     0.00	     0.00	     0.00	     0.00	     0.00	     0.00	
 26	-1.81	 25.15	 3.834e-04	     0.00	     0.00	     0.00	     0.00	     0.00	     0.00	     0.00	     0.00	     0.00	
 27	-1.69	 25.15	 4.102e-04	     0.00	     0.00	     0.00	     0.00	     0.00	     0.00	     0.00	     0.00	     0.00	
 28	-1.56	 25.15	 4.196e-04	     0.00	     0.00	     0.00	     0.00	     0.00	     0.00	    16.00	     0.00	     0.00	
 29	-1.44	 25.15	 4.429e-04	     0.00	     0.00	     0.00	     0.00	     0.00	     0.00	     0.00	     0.00	     0.00	
 30	-1.31	 25.15	 4.311e-04	     0.00	     5.33	     0.00	     0.00	     0.00	     0.00	     0.00	     0.00	     0.00	
 31	-1.19	 25.15	 4.134e-04	     0.00	     0.00	     0.00	     0.00	     0.00	     0.00	     0.00	     0.00	     0.00	
 32	-1.06	 25.15	 3.775e-04	     0.00	     0.00	     0.00	     0.00	     0.00	     0.00	     0.00	     0.00	     0.00	
 33	-0.94	 25.15	 3.998e-04	     0.00	     0.00	     0.00	     0.00	     0.00	     0.00	     0.00	     0.00	     0.00	
 34	-0.81	 25.15	 4.529e-04	     0.00	     0.00	     0.00	     0.00	     0.00	     0.00	     0.00	     0.00	     0.00	
 35	-0.69	 25.15	 4.092e-04	     0.00	     0.00	     0.00	     0.00	     0.00	     0.00	     0.00	     0.00	     0.00	
 36	-0.56	 25.15	 4.143e-04	     0.00	     0.00	     0.00	     0.00	     0.00	     0.00	     5.33	     0.00	     0.00	
 37	-0.44	 25.15	 4.418e-04	     0.00	     0.00	     0.00	     0.00	     0.00	     0.00	     0.00	     0.00	     0.00	
 38	-0.31	 25.15	 3.951e-04	     0.00	     0.00	     0.00	     0.00	     0.00	     0.00	     0.00	     0.00	     0.00	
 39	-0.19	 25.15	 3.947e-04	     0.00	     0.00	     0.00	     0.00	     0.00	     0.00	     0.00	     0.00	     0.00	
 40	-0.06	 25.15	 4.112e-04	     0.00	     0.00	     0.00	     0.00	     0.00	     0.00	     0.00	     0.00	     0.00	
 41	 0.06	 25.15	 4.032e-04	     0.00	     0.00	     0.00	     0.00	     0.00	     0.00	     0.00	     0.00	     0.00	
 42	 0.19	 25.15	 3.899e-04	     0.00	     5.33	     0.00	     0.00	     0.00	     0.00	     0.00	     0.00	     0.00	
 43	 0.31	 25.15	 4.097e-04	     0.00	     0.00	     0.00	     0.00	     0.00	     0.00	     0.00	     0.00	     0.00	
 44	 0.44	 25.15	 3.838e-04	     0.00	     0.00	     0.00	     0.00	     0.00	     0.00	     0.00	     0.00	     0.00	
 45	 0.56	 25.15	 3.842e-04	     0.00	     0.00	     0.00	     0.00	     0.00	     0.00	     0.00	     0.00	     0.00	
 46	 0.69	 25.15	 3.641e-04	     0.00	     0.00	     0.00	     0.00	     0.00	     0.00	     0.00	     0.00	     0.00	
 47	 0.81	 25.15	 3.946e-04	     0.00	     0.00	     0.00	     0.00	     0.00	     0.00	     0.00	     0.00	     0.00	
 48	 0.94	 25.15	 4.331e-04	     0.00	     0.00	     0.00	     0.00	     0.00	     0.00	     0.00	     0.00	     0.00	
 49	 1.06	 25.15	 3.980e-04	     0.00	     0.00	     0.00	     0.00	     0.00	     0.00	     0.00	     0.00	     0.00	
 50	 1.19	 25.15	 3.601e-04	     0.00	     0.00	     0.00	     0.00	     0.00	     0.00	     0.00	     0.00	     0.00	
 51	 1.31	 25.15	 4.135e-04	     0.00	     0.00	     0.00	     0.00	     0.00	     0.00	     0.00	     0.00	     0.00	
 52	 1.44	 25.15	 4.417e-04	     0.00	     0.00	     0.00	     0.00	     0.00	     0.00	     5.33	     0.00	     0.00	
 53	 1.56	 25.15	 3.828e-04	     0.00	     0.00	     0.00	     0.00	     0.00	     0.00	     0.00	     0.00	     0.00	
 54	 1.69	 25.15	 3.803e-04	     0.00	     0.00	     0.00	     0.00	     0.00	     0.00	     0.00	     0.00	     0.00	
 55	 1.81	 25.15	 3.626e-04	     0.00	     0.00	     0.00	     0.00	     0.00	     0.00	     5.33	     0.00	     0.00	
 56	 1.94	 25.15	 3.994e-04	     0.00	     0.00	     0.00	     0.00	     0.00	     0.00	     0.00	     0.00	     0.00	
 57	 2.06	 25.15	 4.017e-04	     0.00	     0.00	     0.00	     0.00	     0.00	     0.00	     0.00	     0.00	     0.00	
 58	 2.19	 25.15	 3.412e-04	     0.00	     0.00	     0.00	     0.00	     0.00	     0.00	     0.00	     0.00	     0.00	
 59	 2.31	 25.15	 2.728e-04	     0.00	     0.00	     0.00	     0.00	     0.00	     0.00	     0.00	     0.00	     0.00	
 60	 2.44	 25.15	 2.656e-04	     0.00	     0.00	     0.00	     0.00	     0.00	     0.00	     0.00	     0.00	     0.00	
 61	 2.56	 25.15	 1.856e-04	     0.00	     0.00	     0.00	     0.00	     0.00	     0.00	     0.00	     0.00	     0.00	
 62	 2.69	 25.15	 1.119e-04	     0.00	     0.00	     0.00	     0.00	     0.00	     0.00	     0.00	     0.00	     0.00	
 63	 2.81	 25.15	 1.059e-04	     0.00	     0.00	     0.00	     0.00	     0.00	     0.00	     0.00	     0.00	     0.00	
 64	 2.94	 25.15	 4.934e-05	     0.00	     0.00	     0.00	     0.00	     0.00	     0.00	     0.00	     0.00	     0.00	
 65	 3.06	 25.15	 3.976e-05	     0.00	     0.00	     0.00	     0.00	     0.00	     0.00	     0.00	     0.00	     0.00	
 66	 3.19	 25.15	 3.352e-05	     0.00	     0.00	     0.00	     0.00	     0.00	     0.00	     0.00	     0.00	     0.00	
 67	 3.31	 25.15	 3.036e-05	     0.00	     0.00	     0.00	     0.00	     0.00	     0.00	     0.00	     0.00	     0.00	
 68	 3.44	 25.15	 1.864e-05	     0.00	     0.00	     0.00	     0.00	     0.00	     0.00	     0.00	     0.00	     0.00	
 69	 3.56	 25.15	 3.906e-05	     0.00	     0.00	     0.00	     0.00	     0.00	     0.00	     0.00	     0.00	     0.00	
 70	 3.69	 25.15	 2.524e-05	     0.00	     0.00	     0.00	     0.00	     0.00	     0.00	     0.00	     0.00	     0.00	
 71	 3.81	 25.15	 9.471e-06	     0.00	     0.00	     0.00	     0.00	     0.00	     0.00	     0.00	     0.00	     0.00	
 72	 3.94	 25.15	 1.274e-05	     0.00	     0.00	     0.00	     0.00	     0.00	     0.00	     0.00	     0.00	     0.00	
 73	 4.06	 25.15	 1.514e-05	     0.00	     0.00	     0.00	     0.00	     0.00	     0.00	     0.00	     0.00	     0.00	
 74	 4.19	 25.15	 1.000e-05	     0.00	     0.00	     0.00	     0.00	     0.00	     0.00	     0.00	     0.00	     0.00	
 75	 4.31	 25.15	 8.387e-06	     0.00	     0.00	     0.00	     0.00	     0.00	     0.00	     0.00	     0.00	     0.00	
 76	 4.44	 25.15	 1.414e-05	     0.00	     0.00	     0.00	     0.00	     0.00	     0.00	     0.00	     0.00	     0.00	
 77	 4.56	 25.15	 1.144e-05	     0.00	     0.00	     0.00	     0.00	     0.00	     0.00	     0.00	     0.00	     0.00	
 78	 4.69	 25.15	 6.922e-06	     0.00	     0.00	     0.00	     0.00	     0.00	     0.00	     0.00	     0.00	     0.00	
 79	 4.81	 25.15	 8.339e-06	     0.00	     0.00	     0.00	     0.00	     0.00	     0.00	     0.00	     0.00	     0.00	
 80	 4.94	 25.15	 3.865e-06	     0.00	     0.00	     0.00	     0.00	     0.00	     0.00	     0.00	     0.00	     0.00	
 81	-4.94	 25.45	 4.614e-06	     0.00	     0.00	     0.00	     0.00	     0.00	     0.00	     0.00	     0.00	     0.00	
 82	-4.81	 25.45	 5.236e-06	     0.00	     0.00	     0.00	     0.00	     0.00	     0.00	     0.00	     0.00	     0.00	
 83	-4.69	 25.45	 8.660e-06	     0.00	     0.00	     0.00	     0.00	     0.00	     0.00	     0.00	     0.00	     0.00	
 84	-4.56	 25.45	 1.469e-05	     0.00	     0.00	     0.00	     0.00	     0.00	     0.00	     0.00	     0.00	     0.00	
 85	-4.44	 25.45	 9.542e-06	     0.00	     0.00	     0.00	     0.00	     0.00	     0.00	     0.00	     0.00	     0.00	
 86	-4.31	 25.45	 9.420e-06	     0.00	     0.00	     0.00	     0.00	     0.00	     0.00	     0.00	     0.00	     0.00	
 87	-4.19	 25.45	 7.546e-06	     0.00	     0.00	     0.00	     0.00	     0.00	     0.00	     0.00	     0.00	     0.00	
 88	-4.06	 25.45	 8.397e-06	     0.00	     0.00	     0.00	     0.00	     0.00	     0.00	     0.00	     0.00	     0.00	
 89	-3.94	 25.45	 1.419e-06	     0.00	     0.00	     0.00	     0.00	     0.00	     0.00	     0.00	     0.00	     0.00	
 90	-3.81	 25.45	 6.313e-06	     0.00	     0.00	     0.00	     0.00	     0.00	     0.00	     0.00	     0.00	     0.00	
 91	-3.69	 25.45	 9.464e-06	     0.00	     0.00	     0.00	     0.00	     0.00	     0.00	     0.00	     0.00	     0.00	
 92	-3.56	 25.45	 5.651e-06	     0.00	     0.00	     0.00	     0.00	     0.00	     0.00	     0.00	     0.00	     0.00	
 93	-3.44	 25.45	 1.352e-05	     0.00	     0.00	     0.00	     0.00	     0.00	     0.00	     0.00	     0.00	     0.00	
 94	-3.31	 25.45	 1.750e-05	     0.00	     0.00	     0.00	     0.00	     0.00	     0.00	     0.00	     0.00	     0.00	
 95	-3.19	 25.45	 2.293e-05	     0.00	     0.00	     0.00	     0.00	     0.00	     0.00	     0.00	     0.00	     0.00	
 96	-3.06	 25.45	 2.711e-05	     0.00	     0.00	     0.00	     0.00	     0.00	     0.00	     0.00	     0.00	     0.00	
 97	-2.94	 25.45	 4.472e-05	     0.00	     0.00	     0.00	     0.00	     0.00	     0.00	     0.00	     0.00	     0.00	
 98	-2.81	 25.45	 8.549e-05	     0.00	     0.00	     0.00	     0.00	     0.00	     0.00	     0.00	     0.00	     0.00	
 99	-2.69	 25.45	 1.548e-04	     0.00	     5.33	     0.00	     0.00	     0.00	     0.00	     0.00	     0.00	     0.00	
 100	-2.56	 25.45	 2.277e-04	     0.00	     0.00	     0.00	     0.00	     0.00	     0.00	     0.00	     0.00	     0.00	
 101	-2.44	 25.45	 2.415e-04	     0.00	     0.00	     0.00	     0.00	     0.00	     0.00	     0.00	     0.00	     0.00	
 102	-2.31	 25.45	 3.013e-04	     0.00	     0.00	     0.00	     0.00	     0.00	     0.00	     0.00	     0.00	     0.00	
 103	-2.19	 25.45	 3.292e-04	     0.00	     0.00	     0.00	     0.00	     0.00	     0.00	     0.00	     0.00	     0.00	
 104	-2.06	 25.45	 4.333e-04	     0.00	     0.00	     0.00	     0.00	     0.00	     0.00	     0.00	     0.00	     0.00	
 105	-1.94	 25.45	 3.809e-04	     0.00	     0.00	     0.00	     0.00	     0.00	     0.00	     0.00	     0.00	     0.00	
 106	-1.81	 25.45	 3.931e-04	     0.00	     5.33	     0.00	     0.00	     0.00	     0.00	     0.00	     0.00	     0.00	
 107	-1.69	 25.45	 4.380e-04	     0.00	     0.00	     0.00	     0.00	     0.00	     0.00	     0.00	     0.00	     0.00	
 108	-1.56	 25.45	 4.199e-04	     0.00	     0.00	     0.00	     0.00	     0.00	     0.00	     0.00	     0.00	     0.00	
 109	-1.44	 25.45	 4.148e-04	     0.00	     0.00	     0.00	     0.00	     0.00	     0.00	     0.00	     0.00	     0.00	
 110	-1.31	 25.45	 4.200e-04	     0.00	     0.00	     0.00	     0.00	     0.00	     0.00	     0.00	     0.00	     0.00	
 111	-1.19	 25.45	 4.263e-04	     0.00	     0.00	     0.00	     0.00	     0.00	     0.00	     0.00	     0.00	     0.00	
 112	-1.06	 25.45	 4.120e-04	     0.00	     0.00	     0.00	     0.00	     0.00	     0.00	     5.33	     0.00	     0.00	
 113	-0.94	 25.45	 3.900e-04	     0.00	     0.00	     0.00	     0.00	     0.00	     0.00	     0.00	     0.00	     0.00	
 114	-0.81	 25.45	 4.173e-04	     0.00	     0.00	     0.00	     0.00	     0.00	     0.00	     0.00	     0.00	     0.00	
 115	-0.69	 25.45	 4.060e-04	     0.00	     0.00	     0.00	     0.00	     0.00	     0.00	     0.00	     0.00	     0.00	
 116	-0.56	 25.45	 4.241e-04	     0.00	     0.00	     0.00	     0.00	     0.00	     0.00	     0.00	     0.00	     0.00	
 117	-0.44	 25.45	 4.399e-04	     0.00	     0.00	     0.00	     0.00	     0.00	     0.00	     0.00	     0.00	     0.00	
 118	-0.31	 25.45	 3.840e-04	     0.00	     0.00	     0.00	     5.33	     0.00	     0.00	     5.33	     0.00	     0.00	
 119	-0.19	 25.45	 4.204e-04	     0.00	     0.00	     0.00	     0.00	     0.00	     0.00	     5.33	     0.00	     0.00	
 120	-0.06	 25.45	 4.144e-04	     0.00	     0.00	     0.00	     0.00	     0.00	     0.00	     5.33	     0.00	     0.00	
 121	 0.06	 25.45	 3.838e-04	     0.00	     0.00	     0.00	     0.00	     0.00	     0.00	     0.00	     0.00	     0.00	
 122	 0.19	 25.45	 3.670e-04	     0.00	     0.00	     0.00	     0.00	     0.00	     0.00	     0.00	     0.00	     0.00	
 123	 0.31	 25.45	 4.566e-04	     0.00	     5.33	     0.00	     0.00	     0.00	     0.00	     0.00	     0.00	     0.00	
 124	 0.44	 25.45	 3.910e-04	     0.00	     0.00	     0.00	     0.00	     0.00	     0.00	     5.33	     0.00	     0.00	
 125	 0.56	 25.45	 3.590e-04	     0.00	     0.00	     0.00	     0.00	     0.00	     0.00	     0.00	     0.00	     0.00	
 126	 0.69	 25.45	 3.634e-04	     0.00	     0.00	     0.00	     0.00	     0.00	     0.00	     0.00	     0.00	     0.00	
 127	 0.81	 25.45	 3.905e-04	     0.00	     0.00	     0.00	     0.00	     0.00	     0.00	     0.00	     0.00	     0.00	
 128	 0.94	 25.45	 4.581e-04	     0.00	     5.33	     0.00	     0.00	     0.00	     0.00	     0.00	     0.00	     0.00	
 129	 1.06	 25.45	 4.101e-04	     0.00	     0.00	     0.00	     0.00	     0.00	     0.00	     0.00	     0.00	     0.00	
 130	 1.19	 25.45	 3.678e-04	     0.00	     0.00	     0.00	     0.00	     0.00	     0.00	     0.00	     0.00	     0.00	
 131	 1.31	 25.45	 4.237e-04	     0.00	     0.00	     0.00	     0.00	     0.00	     0.00	     0.00	     0.00	     0.00	
 132	 1.44	 25.45	 4.345e-04	     0.00	     0.00	     0.00	     0.00	     0.00	     0.00	     5.33	     0.00	     0.00	
 133	 1.56	 25.45	 3.819e-04	     0.00	     0.00	     0.00	     0.00	     0.00	     0.00	     0.00	     0.00	     0.00	
 134	 1.69	 25.45	 3.916e-04	     0.00	     0.00	     0.00	     0.00	     0.00	     0.00	     0.00	     0.00	     0.00	
 135	 1.81	 25.45	 3.568e-04	     0.00	     0.00	     0.00	     0.00	     0.00	     0.00	     0.00	     0.00	     0.00	
 136	 1.94	 25.45	 4.196e-04	     0.00	     0.00	     0.00	     0.00	     0.00	     0.00	     0.00	     0.00	     0.00	
 137	 2.06	 25.45	 4.269e-04	     0.00	     5.33	     0.00	     0.00	     0.00	     0.00	     0.00	     0.00	     0.00	
 138	 2.19	 25.45	 3.855e-04	     0.00	     5.33	     0.00	     0.00	     0.00	     0.00	     0.00	     0.00	     0.00	
 139	 2.31	 25.45	 2.858e-04	     0.00	     0.00	     0.00	     0.00	     0.00	     0.00	     0.00	     0.00	     0.00	
 140	 2.44	 25.45	 2.562e-04	     0.00	     0.00	     0.00	     0.00	     0.00	     0.00	     0.00	     0.00	     0.00	
 141	 2.56	 25.45	 1.984e-04	     0.00	     0.00	     0.00	     0.00	     0.00	     0.00	     0.00	     0.00	     0.00	
 142	 2.69	 25.45	 9.817e-05	     0.00	     0.00	     0.00	     0.00	     0.00	     0.00	     0.00	     0.00	     0.00	
 143	 2.81	 25.45	 1.006e-04	     0.00	     0.00	     0.00	     0.00	     0.00	     0.00	     0.00	     0.00	     0.00	
 144	 2.94	 25.45	 5.794e-05	     0.00	     0.00	     0.00	     0.00	     0.00	     0.00	     0.00	     0.00	     0.00	
 145	 3.06	 25.45	 3.127e-05	     0.00	     0.00	     0.00	     0.00	     0.00	     0.00	     0.00	     0.00	     0.00	
 146	 3.19	 25.45	 2.554e-05	     0.00	     0.00	     0.00	     0.00	     0.00	     0.00	     0.00	     0.00	     0.00	
 147	 3.31	 25.45	 3.972e-05	     0.00	     0.00	     0.00	     0.00	     0.00	     0.00	     0.00	     0.00	     0.00	
 148	 3.44	 25.45	 1.963e-05	     0.00	     0.00	     0.00	     0.00	     0.00	     0.00	     0.00	     0.00	     0.00	
 149	 3.56	 25.45	 2.744e-05	     0.00	     0.00	     0.00	     0.00	     0.00	     0.00	     0.00	     0.00	     0.00	
 150	 3.69	 25.45	 1.449e-05	     0.00	     0.00	     0.00	     0.00	     0.00	     0.00	     0.00	     0.00	     0.00	
 151	 3.81	 25.45	 1.242e-05	     0.00	     0.00	     0.00	     0.00	     0.00	     0.00	     0.00	     0.00	     0.00	
 152	 3.94	 25.45	 1.210e-05	     0.00	     0.00	     0.00	     0.00	     0.00	     0.00	     0.00	     0.00	     0.00	
 153	 4.06	 25.45	 1.091e-05	     0.00	     0.00	     0.00	     0.00	     0.00	     0.00	     0.00	     0.00	     0.00	
 154	 4.19	 25.45	 1.389e-05	     0.00	     0.00	     0.00	     0.00	     0.00	     0.00	     0.00	     0.00	     0.00	
 155	 4.31	 25.45	 1.082e-05	     0.00	     0.00	     0.00	     0.00	     0.00	     0.00	     0.00	     0.00	     0.00	
 156	 4.44	 25.45	 1.655e-05	     0.00	     0.00	     0.00	     0.00	     0.00	     0.00	     0.00	     0.00	     0.00	
 157	 4.56	 25.45	 3.781e-06	     0.00	     0.00	     0.00	     0.00	     0.00	     0.00	     0.00	     0.00	     0.00	
 158	 4.69	 25.45	 4.318e-06	     0.00	     0.00	     0.00	     0.00	     0.00	     0.00	     0.00	     0.00	     0.00	
 159	 4.81	 25.45	 6.781e-06	     0.00	     0.00	     0.00	     0.00	     0.00	     0.00	     0.00	     0.00	     0.00	
 160	 4.94	 25.45	 8.627e-06	     0.00	     0.00	     0.00	     0.00	     0.00	     0.00	     0.00	     0.00	     0.00	
 161	-4.94	 25.75	 5.703e-06	     0.00	     0.00	     0.00	     0.00	     0.00	     0.00	     0.00	     0.00	     0.00	
 162	-4.81	 25.75	 3.034e-06	     0.00	     0.00	     0.00	     0.00	     0.00	     0.00	     0.00	     0.00	     0.00	
 163	-4.69	 25.75	 4.658e-06	     0.00	     0.00	     0.00	     0.00	     0.00	     0.00	     0.00	     0.00	     0.00	
 164	-4.56	 25.75	 3.890e-05	     0.00	     0.00	     0.00	     0.00	     0.00	     0.00	     0.00	     0.00	     0.00	
